DEF="Time" t / s	"Current" I_A1 / A	"Voltage" U_B1 / V	"Relay" R_1	"Voltage source" S_1	"Magnetic flux" &F / Vs
0	0.0005	0	0	1	0
0.0630000000000002	0.0085	0.0595	1	1	0.00187425
0.114	0.0215	0.0935	1	1	0.00577575000000002
0.163	0.036	0.123	1	1	0.01108
0.213	0.0515	0.1525	1	1	0.0179675
0.263	0.067	0.1795	1	1	0.0262675
0.313	0.0835	0.2085	1	1	0.0359675
0.363	0.099	0.2355	1	1	0.0470675000000001
0.413	0.1155	0.262	1	1	0.059505
0.463	0.1325	0.2855	1	1	0.0731925
0.513	0.151	0.308	1	1	0.0880299999999999
0.564	0.1695	0.3275	1	1	0.10423525
0.614	0.188	0.349	1	1	0.12114775
0.663	0.2065	0.3685	1	1	0.1387265
0.713	0.225	0.391	1	1	0.157714
0.763	0.2415	0.4215	1	1	0.1780265
0.813000000000001	0.256	0.452	1	1	0.199864
0.863	0.271	0.484	1	1	0.223264
0.913	0.2865	0.5125	1	1	0.2481765
0.964	0.3035	0.537	1	1	0.27493875
1.013	0.321	0.558	1	1	0.30176625
1.063	0.34	0.576	1	1	0.33011625
1.113	0.361	0.589	1	1	0.35924125
1.164	0.383	0.5925	1	1	0.3893695
1.214	0.4005	0.4855	1	1	0.4163195
1.263	0.413	0.388	1	1	0.43772025
1.313	0.421	0.298	1	1	0.45487025
1.363	0.426	0.2195	1	1	0.46780775
1.412	0.4275	0.147	1	1	0.476787
1.463	0.426	0.0865	1	1	0.48274125
1.513	0.4215	0.0295	1	1	0.48564125
1.563	0.414	-0.0135	1	1	0.48604125
1.613	0.4015	-0.0465	1	1	0.48454125
1.663	0.3865	-0.0715	1	1	0.48159125
1.713	0.369	-0.095	1	1	0.47742875
1.763	0.3505	-0.115	1	1	0.47217875
1.814	0.3315	-0.135	1	1	0.46580375
1.863	0.312	-0.152	1	1	0.45877225
1.913	0.292	-0.171	1	1	0.45069725
1.964	0.273	-0.1895	1	1	0.4415045
2.013	0.2545	-0.2095	1	1	0.431729
2.063	0.235	-0.228	1	1	0.4207915
2.113	0.216	-0.2485	1	1	0.408879
2.163	0.197	-0.2685	1	1	0.395954
2.213	0.178	-0.291	1	1	0.3819665
2.264	0.1595	-0.312	1	1	0.36659
2.314	0.1415	-0.334	1	1	0.35044
2.363	0.1245	-0.355	1	1	0.3335595
2.413	0.107	-0.38	1	1	0.3151845
2.463	0.09	-0.4045	1	1	0.295572
2.514	0.073	-0.432	1	1	0.27424125
2.563	0.057	-0.4595	1	1	0.2523995
2.613	0.0415	-0.4895	1	1	0.2286745
2.663	0.0265	-0.52	1	1	0.203437
2.713	0.0115	-0.5515	1	1	0.1766495
2.763	-0.003	-0.5815	1	1	0.1483245
2.813	-0.0175	-0.612	1	1	0.118487
2.864	-0.033	-0.6415	1	1	0.0865227500000002
2.913	-0.048	-0.6695	1	1	0.05440325
2.963	-0.064	-0.6955	1	1	0.0202782500000001
3.013	-0.0805	-0.7215	1	1	-0.0151467499999998
3.062	-0.0975	-0.744	1	1	-0.0510515
3.114	-0.116	-0.766	1	1	-0.0903114999999997
3.163	-0.1345	-0.7835	1	1	-0.12827425
3.213	-0.1545	-0.801	1	1	-0.16788675
3.263	-0.175	-0.8145	1	1	-0.20827425
3.313	-0.196	-0.8255	1	1	-0.24927425
3.364	-0.219	-0.835	1	1	-0.291617
3.413	-0.242	-0.843	1	1	-0.332728
3.463	-0.2665	-0.845	1	1	-0.374928
3.513	-0.2915	-0.831	1	1	-0.416828
3.563	-0.311	-0.715	1	1	-0.455478
3.613	-0.325	-0.613	1	1	-0.488678
3.663	-0.3365	-0.5135	1	1	-0.5168405
3.713	-0.345	-0.427	1	1	-0.540353
3.764	-0.3505	-0.3425	1	1	-0.55997525
3.813	-0.353	-0.271	1	1	-0.575006
3.864	-0.353	-0.202	1	1	-0.5870675
3.913	-0.351	-0.1435	1	1	-0.59553225
3.963	-0.346	-0.086	1	1	-0.60126975
4.013	-0.3395	-0.037	1	1	-0.60434475
4.063	-0.331	0.007	1	1	-0.60509475
4.113	-0.319	0.04	1	1	-0.60391975
4.163	-0.3045	0.071	1	1	-0.60114475
4.213	-0.2895	0.0965	1	1	-0.59695725
4.263	-0.2725	0.121	1	1	-0.59151975
4.313	-0.255	0.144	1	1	-0.58489475
4.363	-0.237	0.166	1	1	-0.57714475
4.414	-0.219	0.186	1	1	-0.56816875
4.463	-0.2005	0.209	1	1	-0.55849125
4.513	-0.182	0.2295	1	1	-0.54752875
4.563	-0.164	0.2525	1	1	-0.53547875
4.613	-0.146	0.2735	1	1	-0.52232875
4.663	-0.128	0.2975	1	1	-0.50805375
4.713	-0.111	0.319	1	1	-0.49264125
4.763	-0.0935	0.343	1	1	-0.47609125
4.813	-0.0765	0.3695	1	1	-0.45827875
4.864	-0.0595	0.396	1	1	-0.4387585
4.913	-0.0435	0.4225	1	1	-0.41870525
4.963	-0.028	0.452	1	1	-0.39684275
5.014	-0.0125	0.4845	1	1	-0.372962
5.064	0.0015	0.516	1	1	-0.347949499999999
5.113	0.016	0.5475	1	1	-0.32189375
5.163	0.03	0.579	1	1	-0.29373125
5.213	0.0455	0.61	1	1	-0.26400625
5.263	0.0605	0.639	1	1	-0.232781249999999
5.313	0.076	0.6685	1	1	-0.20009375
5.362	0.092	0.693	1	1	-0.166736999999999
5.413	0.109	0.7185	1	1	-0.13074375
5.463	0.127	0.7415	1	1	-0.0942437499999998
5.513	0.145	0.7625	1	1	-0.0566437499999992
5.564	0.1645	0.7825	1	1	-0.0172462499999991
5.613	0.184	0.7975	1	1	0.0214637500000005
5.663	0.2045	0.8105	1	1	0.0616637499999996
5.714	0.226	0.824	1	1	0.1033435
5.763	0.249	0.832	1	1	0.143915500000001
5.814	0.2725	0.837	1	1	0.186475000000001
5.862	0.2965	0.812	1	1	0.226051000000001
5.912	0.3155	0.699	1	1	0.263826
5.963	0.331	0.589	1	1	0.29667
6.013	0.342	0.492	1	1	0.323695000000001
6.063	0.351	0.401	1	1	0.34602
6.112	0.3565	0.321	1	1	0.363709000000001
6.163	0.36	0.2425	1	1	0.37807825
6.213	0.3605	0.173	1	1	0.38846575
6.263	0.359	0.109	1	1	0.39551575
6.313	0.3545	0.0525	1	1	0.39955325
6.364	0.3485	0.0025	1	1	0.40095575
6.413	0.338	-0.034	1	1	0.400184
6.463	0.3245	-0.0655	1	1	0.3976965
6.512	0.309	-0.0905	1	1	0.3938745
6.563	0.292	-0.115	1	1	0.38863425
6.614	0.274	-0.137	1	1	0.38220825
6.663	0.2555	-0.1585	1	1	0.3749685
6.712	0.2375	-0.1775	1	1	0.3667365
6.763	0.2185	-0.2005	1	1	0.3570975
6.814	0.1995	-0.22	1	1	0.34637475
6.863	0.1815	-0.2415	1	1	0.335068
6.913	0.163	-0.2625	1	1	0.322468000000001
6.963	0.145	-0.286	1	1	0.3087555
7.014	0.127	-0.3085	1	1	0.29359575
7.063	0.11	-0.3315	1	1	0.277915750000001
7.113	0.0925	-0.3555	1	1	0.26074075
7.163	0.0765	-0.382	1	1	0.242303250000001
7.213	0.06	-0.409	1	1	0.22252825
7.263	0.0435	-0.439	1	1	0.20132825
7.313	0.0285	-0.469	1	1	0.178628250000001
7.364	0.0135	-0.5025	1	1	0.153855000000001
7.414	-0.0005	-0.5335	1	1	0.127955
7.463	-0.0145	-0.565	1	1	0.10104175
7.513	-0.029	-0.5955	1	1	0.07202925
7.563	-0.044	-0.626	1	1	0.0414917500000007
7.612	-0.0595	-0.6545	1	1	0.0101194999999999
7.663	-0.075	-0.682	1	1	-0.0239612499999991
7.713	-0.0915	-0.7065	1	1	-0.0586737499999996
7.763	-0.109	-0.7305	1	1	-0.0945987500000001
7.813	-0.127	-0.751	1	1	-0.131636249999999
7.863	-0.1455	-0.77	1	1	-0.16966125
7.914	-0.1655	-0.786	1	1	-0.20933925
7.963	-0.186	-0.8	1	1	-0.24819625
8.012	-0.207	-0.811	1	1	-0.28766575
8.063	-0.23	-0.8195	1	1	-0.329243499999999
8.112	-0.2535	-0.825	1	1	-0.369533750000001
8.163	-0.2785	-0.827	1	1	-0.41165975
8.213	-0.3035	-0.784	1	1	-0.45193475
8.264	-0.3225	-0.669	1	1	-0.488986249999999
8.314	-0.337	-0.565	1	1	-0.51983625
8.363	-0.3475	-0.474	1	1	-0.545291749999999
8.413	-0.355	-0.3845	1	1	-0.56675425
8.464	-0.36	-0.3055	1	1	-0.584349249999999
8.513	-0.362	-0.233	1	1	-0.5975425
8.564	-0.361	-0.1665	1	1	-0.60772975
8.613	-0.358	-0.1085	1	1	-0.614467249999999
8.663	-0.353	-0.055	1	1	-0.618554749999999
8.713	-0.346	-0.009	1	1	-0.62015475
8.763	-0.335	0.0295	1	1	-0.61964225
8.813	-0.3215	0.06	1	1	-0.61740475
8.863	-0.306	0.0875	1	1	-0.61371725
8.913	-0.2895	0.111	1	1	-0.608754749999999
8.963	-0.2725	0.134	1	1	-0.602629749999999
9.013	-0.2545	0.154	1	1	-0.595429749999999
9.064	-0.236	0.176	1	1	-0.58701475
9.113	-0.2175	0.197	1	1	-0.57787625
9.163	-0.1985	0.218	1	1	-0.56750125
9.214	-0.18	0.239	1	1	-0.55584775
9.263	-0.1625	0.261	1	1	-0.543597749999999
9.313	-0.144	0.282	1	1	-0.53002275
9.363	-0.1265	0.306	1	1	-0.51532275
9.413	-0.1085	0.328	1	1	-0.499472749999999
9.463	-0.0915	0.3525	1	1	-0.482460249999999
9.513	-0.0745	0.377	1	1	-0.464222749999999
9.563	-0.058	0.405	1	1	-0.44467275
9.614	-0.0415	0.4335	1	1	-0.423290999999999
9.664	-0.026	0.464	1	1	-0.400853499999999
9.713	-0.0115	0.495	1	1	-0.377357999999999
9.763	0.003	0.5265	1	1	-0.351820499999999
9.813	0.017	0.5575	1	1	-0.3247205
9.863	0.032	0.59	1	1	-0.296033
9.914	0.047	0.6195	1	1	-0.265190749999999
9.964	0.0625	0.649	1	1	-0.233478250000001
10.014	0.0785	0.677	1	1	-0.20032825
10.064	0.0945	0.702	1	1	-0.16585325
10.113	0.1115	0.726	1	1	-0.13086725
10.163	0.129	0.749	1	1	-0.0939922499999994
10.213	0.148	0.768	1	1	-0.0560672499999989
10.263	0.167	0.787	1	1	-0.0171922499999983
10.313	0.1875	0.8025	1	1	0.0225452499999994
10.363	0.2085	0.816	1	1	0.06300775
10.413	0.23	0.826	1	1	0.104057750000001
10.464	0.2535	0.8345	1	1	0.146400499999999
10.514	0.2775	0.8375	1	1	0.1882005
10.563	0.301	0.7895	1	1	0.228061999999999
10.613	0.319	0.6755	1	1	0.264687
10.663	0.3335	0.5705	1	1	0.295837
10.714	0.344	0.4725	1	1	0.322433499999999
10.763	0.352	0.388	1	1	0.343515750000001
10.813	0.357	0.3035	1	1	0.36080325
10.863	0.3595	0.2315	1	1	0.37417825
10.913	0.3595	0.1605	1	1	0.38397825
10.963	0.3575	0.1005	1	1	0.39050325
11.014	0.3525	0.043	1	1	0.3941625
11.063	0.3455	-0.002	1	1	0.395167
11.112	0.335	-0.039	1	1	0.3941625
11.163	0.321	-0.067	1	1	0.3914595
11.213	0.3045	-0.0955	1	1	0.387397
11.264	0.288	-0.1175	1	1	0.3819655
11.313	0.27	-0.141	1	1	0.37563225
11.363	0.2515	-0.16	1	1	0.36810725
11.413	0.233	-0.1825	1	1	0.35954475
11.464	0.214	-0.203	1	1	0.3497145
11.513	0.1955	-0.2245	1	1	0.33924075
11.563	0.177	-0.2445	1	1	0.32751575
11.614	0.159	-0.268	1	1	0.314447
11.663	0.141	-0.2885	1	1	0.30081275
11.713	0.123	-0.312	1	1	0.28580025
11.763	0.106	-0.3345	1	1	0.26963775
11.814	0.089	-0.361	1	1	0.2519025
11.863	0.0725	-0.3855	1	1	0.23361325
11.913	0.0555	-0.415	1	1	0.21360075
11.963	0.04	-0.4425	1	1	0.19216325
12.013	0.025	-0.4755	1	1	0.169213249999999
12.062	0.0105	-0.5055	1	1	0.14517875
12.113	-0.0035	-0.539	1	1	0.118544
12.164	-0.0185	-0.5695	1	1	0.0902772499999994
12.214	-0.0325	-0.602	1	1	0.060989750000001
12.263	-0.0475	-0.63	1	1	0.0308057499999992
12.314	-0.0635	-0.6605	1	1	-0.00210199999999978
12.364	-0.079	-0.685	1	1	-0.0357395000000003
12.413	-0.0955	-0.712	1	1	-0.0699659999999999
12.464	-0.1125	-0.7335	1	1	-0.106826250000001
12.513	-0.1305	-0.754	1	1	-0.143270000000001
12.564	-0.1505	-0.773	1	1	-0.1822085
12.613	-0.1695	-0.789	1	1	-0.220477499999999
12.663	-0.19	-0.802	1	1	-0.2602525
12.713	-0.212	-0.8145	1	1	-0.300665
12.763	-0.235	-0.8205	1	1	-0.341540000000001
12.813	-0.259	-0.827	1	1	-0.382727500000002
12.863	-0.284	-0.826	1	1	-0.424052499999999
12.914	-0.3085	-0.759	1	1	-0.464470000000001
12.964	-0.326	-0.6455	1	1	-0.499582500000001
13.014	-0.3395	-0.546	1	1	-0.52937
13.064	-0.3495	-0.4515	1	1	-0.5543075
13.113	-0.357	-0.368	1	1	-0.57438525
13.163	-0.361	-0.2875	1	1	-0.59077275
13.214	-0.3625	-0.217	1	1	-0.603637500000001
13.263	-0.3615	-0.1515	1	1	-0.612665750000001
13.313	-0.3585	-0.094	1	1	-0.618803250000001
13.363	-0.3525	-0.04	1	1	-0.622153250000001
13.413	-0.345	0.0035	1	1	-0.623065750000001
13.463	-0.3335	0.039	1	1	-0.622003250000001
13.513	-0.3195	0.0675	1	1	-0.619340750000001
13.563	-0.3035	0.0955	1	1	-0.615265750000001
13.613	-0.2865	0.1175	1	1	-0.609940750000001
13.664	-0.2685	0.141	1	1	-0.603349000000001
13.714	-0.2505	0.1595	1	1	-0.5958365
13.763	-0.232	0.1815	1	1	-0.587482000000001
13.814	-0.213	0.201	1	1	-0.577728250000001
13.864	-0.1945	0.224	1	1	-0.567103250000001
13.913	-0.1765	0.2445	1	1	-0.555625000000001
13.963	-0.1585	0.267	1	1	-0.542837500000001
14.013	-0.1405	0.289	1	1	-0.5289375
14.063	-0.1225	0.3095	1	1	-0.513975
14.114	-0.105	0.334	1	1	-0.497565750000001
14.163	-0.0885	0.358	1	1	-0.480611750000001
14.213	-0.071	0.3845	1	1	-0.462049250000001
14.263	-0.0545	0.4115	1	1	-0.44214925
14.313	-0.0385	0.439	1	1	-0.42088675
14.364	-0.023	0.4705	1	1	-0.397694500000001
14.413	-0.0085	0.5025	1	1	-0.373856000000001
14.463	0.0055	0.5335	1	1	-0.347956000000001
14.514	0.02	0.566	1	1	-0.319918750000002
14.563	0.035	0.5965	1	1	-0.2914375
14.613	0.05	0.6265	1	1	-0.260862500000002
14.662	0.065	0.6545	1	1	-0.229478
14.712	0.081	0.6825	1	1	-0.196053000000001
14.763	0.0975	0.7065	1	1	-0.1606335
14.813	0.115	0.7325	1	1	-0.1246585
14.863	0.133	0.753	1	1	-0.0875210000000017
14.913	0.152	0.773	1	1	-0.0493710000000012
14.962	0.171	0.7895	1	1	-0.0110897500000016
15.013	0.1915	0.8055	1	1	0.02958275
15.063	0.213	0.8165	1	1	0.0701327500000005
15.114	0.235	0.8285	1	1	0.112080249999999
15.163	0.2585	0.8335	1	1	0.152799249999999
15.213	0.283	0.8375	1	1	0.194574249999999
15.264	0.306	0.758	1	1	0.235259499999998
15.313	0.323	0.6505	1	1	0.26976775
15.364	0.3365	0.546	1	1	0.300278499999999
15.413	0.3465	0.453	1	1	0.324753999999999
15.463	0.354	0.364	1	1	0.345178999999999
15.513	0.3585	0.2875	1	1	0.3614665
15.563	0.3605	0.2105	1	1	0.3739165
15.613	0.36	0.147	1	1	0.382853999999999
15.663	0.357	0.085	1	1	0.388653999999999
15.713	0.352	0.0335	1	1	0.391616499999999
15.763	0.344	-0.0135	1	1	0.392116499999999
15.815	0.332	-0.0465	1	1	0.390556499999999
15.864	0.3175	-0.077	1	1	0.387530749999999
15.913	0.3015	-0.1	1	1	0.383194249999999
15.962	0.2845	-0.124	1	1	0.377706249999999
16.012	0.2665	-0.1455	1	1	0.370968749999999
16.063	0.2475	-0.167	1	1	0.362999999999999
16.113	0.229	-0.1875	1	1	0.354137499999999
16.163	0.2105	-0.2085	1	1	0.344237499999999
16.214	0.192	-0.2285	1	1	0.333093999999999
16.263	0.1735	-0.2515	1	1	0.321333999999999
16.314	0.155	-0.272	1	1	0.307984749999999
16.363	0.137	-0.2955	1	1	0.294081
16.413	0.1195	-0.3165	1	1	0.278780999999999
16.463	0.1025	-0.34	1	1	0.262368499999999
16.513	0.0855	-0.3655	1	1	0.244730999999999
16.563	0.0685	-0.393	1	1	0.225768499999999
16.613	0.052	-0.4195	1	1	0.205456
16.663	0.0365	-0.4495	1	1	0.183731
16.713	0.0215	-0.481	1	1	0.160468499999999
16.764	0.0065	-0.5135	1	1	0.13510875
16.814	-0.007	-0.5445	1	1	0.10865875
16.864	-0.0215	-0.5775	1	1	0.0806087499999992
16.913	-0.036	-0.606	1	1	0.0516129999999995
16.963	-0.051	-0.6365	1	1	0.0205504999999991
17.012	-0.066	-0.664	1	1	-0.0113117500000006
17.063	-0.0825	-0.69	1	1	-0.0458387500000019
17.112	-0.099	-0.716	1	1	-0.0802857500000015
17.163	-0.1165	-0.738	1	1	-0.11736275
17.214	-0.135	-0.758	1	1	-0.155510750000002
17.263	-0.154	-0.7755	1	1	-0.193081500000001
17.314	-0.1745	-0.7915	1	1	-0.23304
17.363	-0.195	-0.8035	1	1	-0.2721175
17.414	-0.2175	-0.814	1	1	-0.313363750000001
17.463	-0.24	-0.821	1	1	-0.353421250000001
17.513	-0.264	-0.825	1	1	-0.394571250000001
17.563	-0.289	-0.825	1	1	-0.435821250000002
17.614	-0.312	-0.735	1	1	-0.475601250000001
17.663	-0.3285	-0.627	1	1	-0.50897025
17.713	-0.342	-0.525	1	1	-0.537770250000001
17.763	-0.3515	-0.432	1	1	-0.561695250000001
17.813	-0.358	-0.35	1	1	-0.581245250000001
17.863	-0.362	-0.271	1	1	-0.596770250000001
17.914	-0.363	-0.1995	1	1	-0.608768000000001
17.963	-0.3615	-0.1375	1	1	-0.617024500000001
18.013	-0.358	-0.0805	1	1	-0.622474500000001
18.063	-0.352	-0.0295	1	1	-0.625224500000001
18.113	-0.3435	0.013	1	1	-0.625637000000001
18.163	-0.331	0.0475	1	1	-0.624124500000001
18.214	-0.3165	0.076	1	1	-0.620975250000001
18.263	-0.3005	0.1015	1	1	-0.616626500000001
18.313	-0.283	0.1235	1	1	-0.611001500000001
18.363	-0.265	0.146	1	1	-0.604264000000001
18.414	-0.2465	0.1665	1	1	-0.596295250000001
18.464	-0.228	0.1875	1	1	-0.587445250000001
18.514	-0.2095	0.208	1	1	-0.577557750000001
18.563	-0.1915	0.2285	1	1	-0.566863500000001
18.614	-0.1725	0.25	1	1	-0.554661750000001
18.663	-0.155	0.272	1	1	-0.541872750000001
18.713	-0.1365	0.2935	1	1	-0.527735250000001
18.764	-0.119	0.3155	1	1	-0.512205750000001
18.812	-0.102	0.3385	1	1	-0.496509750000001
18.863	-0.0845	0.3635	1	1	-0.478608750000001
18.913	-0.068	0.389	1	1	-0.459796250000001
18.963	-0.051	0.417	1	1	-0.439646250000001
19.013	-0.0355	0.445	1	1	-0.418096250000001
19.063	-0.02	0.478	1	1	-0.39502125
19.113	-0.0055	0.5095	1	1	-0.370333750000002
19.163	0.0085	0.541	1	1	-0.344071250000001
19.214	0.023	0.5725	1	1	-0.315677
19.263	0.038	0.603	1	1	-0.286877250000001
19.313	0.053	0.6315	1	1	-0.25601475
19.363	0.0685	0.661	1	1	-0.223702250000002
19.413	0.0845	0.6875	1	1	-0.189989750000001
19.462	0.101	0.712	1	1	-0.155702000000002
19.512	0.1185	0.736	1	1	-0.119502000000001
19.563	0.137	0.758	1	1	-0.0814049999999998
19.613	0.156	0.775	1	1	-0.043080000000002
19.663	0.175	0.7935	1	1	-0.00386750000000146
19.713	0.1985	0.809	1	1	0.0361949999999991
19.763	0.2175	0.8195	1	1	0.0769074999999997
19.813	0.24	0.8285	1	1	0.1181075
19.864	0.264	0.835	1	1	0.160526749999999
19.914	0.2885	0.836	1	1	0.20230175
19.963	0.31	0.7365	1	1	0.240827999999999
20.014	0.3265	0.6245	1	1	0.275533499999998
20.063	0.339	0.527	1	1	0.30374525
20.113	0.3485	0.432	1	1	0.327720249999998
20.162	0.355	0.3495	1	1	0.346867
20.213	0.3595	0.2685	1	1	0.362625999999999
20.263	0.3605	0.198	1	1	0.374288499999999
20.314	0.3595	0.1325	1	1	0.382716249999999
20.363	0.356	0.0755	1	1	0.387812249999999
20.413	0.3505	0.023	1	1	0.390274749999999
20.463	0.342	-0.0215	1	1	0.390312249999999
20.513	0.3295	-0.0535	1	1	0.388437249999999
20.563	0.3145	-0.081	1	1	0.385074749999999
20.613	0.2985	-0.105	1	1	0.380424749999999
20.663	0.2805	-0.129	1	1	0.374574749999999
20.714	0.262	-0.151	1	1	0.367434749999999
20.763	0.244	-0.1705	1	1	0.359557999999999
20.813	0.2255	-0.191	1	1	0.350520499999999
20.863	0.2065	-0.212	1	1	0.340445499999999
20.914	0.188	-0.2335	1	1	0.329085249999999
20.963	0.1695	-0.255	1	1	0.317116999999999
21.014	0.151	-0.2775	1	1	0.30353825
21.064	0.1335	-0.3005	1	1	0.289088249999999
21.114	0.116	-0.3215	1	1	0.273538249999999
21.164	0.0985	-0.3455	1	1	0.256863249999999
21.213	0.082	-0.37	1	1	0.239333499999999
21.263	0.0655	-0.398	1	1	0.220133499999999
21.313	0.049	-0.4255	1	1	0.199545999999999
21.363	0.0335	-0.456	1	1	0.1775085
21.413	0.0185	-0.488	1	1	0.153908499999999
21.463	0.004	-0.519	1	1	0.128733499999999
21.513	-0.0095	-0.5495	1	1	0.102020999999999
21.564	-0.0245	-0.5825	1	1	0.0731549999999997
21.613	-0.039	-0.611	1	1	0.04391425
21.663	-0.0545	-0.6425	1	1	0.0125767499999995
21.713	-0.07	-0.67	1	1	-0.0202357500000009
21.763	-0.086	-0.696	1	1	-0.0543857500000014
21.813	-0.1025	-0.719	1	1	-0.0897607500000019
21.863	-0.1205	-0.743	1	1	-0.12631075
