DEF="Time" t / s	"Current" I_A1 / A	"Voltage" U_B1 / V	"Relay" R_1	"Voltage source" S_1	"Magnetic flux" &F / Vs
0	0.0005	0	0	1	0
0.049	0.002	0	1	1	0
0.099	0.005	0.022	1	1	0.00055
0.149	0.01	0.026	1	1	0.00175
0.199	0.015	0.029	1	1	0.003125
0.249	0.02	0.0325	1	1	0.0046625
0.299	0.0255	0.036	1	1	0.006375
0.35	0.0305	0.039	1	1	0.0082875
0.399	0.0355	0.0415	1	1	0.01025975
0.449	0.041	0.045	1	1	0.01242225
0.499	0.046	0.0475	1	1	0.01473475
0.549	0.0515	0.0505	1	1	0.01718475
0.599	0.0565	0.053	1	1	0.01977225
0.649	0.062	0.056	1	1	0.02249725
0.699	0.0675	0.0585	1	1	0.02535975
0.749	0.073	0.061	1	1	0.02834725
0.799	0.0785	0.064	1	1	0.03147225
0.848	0.083	0.067	1	1	0.03468175
0.899	0.0885	0.071	1	1	0.03820075
0.949	0.093	0.076	1	1	0.04187575
0.999	0.0975	0.082	1	1	0.04582575
1.049	0.1015	0.089	1	1	0.05010075
1.099	0.1055	0.096	1	1	0.05472575
1.15	0.109	0.101	1	1	0.05974925
1.199	0.111	0.082	1	1	0.06423275
1.25	0.1115	0.0645	1	1	0.0679685
1.299	0.112	0.0475	1	1	0.0707125
1.35	0.1115	0.033	1	1	0.07276525
1.399	0.1105	0.0185	1	1	0.074027
1.449	0.109	0.006	1	1	0.0746395
1.5	0.107	-0.0045	1	1	0.07467775
1.549	0.104	-0.012	1	1	0.0742735
1.599	0.1005	-0.0185	1	1	0.073511
1.649	0.096	-0.024	1	1	0.0724485
1.698	0.0915	-0.0285	1	1	0.07116225
1.749	0.0865	-0.032	1	1	0.0696195
1.799	0.0815	-0.036	1	1	0.0679195
1.85	0.0765	-0.039	1	1	0.066007
1.899	0.0715	-0.0425	1	1	0.06401025
1.949	0.066	-0.0455	1	1	0.06181025
1.999	0.061	-0.0485	1	1	0.05946025
2.049	0.0555	-0.051	1	1	0.05697275
2.099	0.05	-0.054	1	1	0.05434775
2.149	0.045	-0.0565	1	1	0.05158525
2.199	0.0395	-0.0595	1	1	0.04868525
2.249	0.034	-0.0615	1	1	0.04566025
2.299	0.0285	-0.064	1	1	0.04252275
2.349	0.023	-0.066	1	1	0.03927275
2.4	0.018	-0.0685	1	1	0.035843
2.449	0.0125	-0.071	1	1	0.03242525
2.499	0.007	-0.074	1	1	0.02880025
2.549	0.0015	-0.0765	1	1	0.02503775
2.599	-0.003	-0.08	1	1	0.02112525
2.649	-0.008	-0.0835	1	1	0.01703775
2.699	-0.013	-0.087	1	1	0.01277525
2.75	-0.018	-0.0905	1	1	0.00824900000000002
2.799	-0.023	-0.0945	1	1	0.00371650000000003
2.849	-0.028	-0.0975	1	1	-0.00108349999999996
2.899	-0.033	-0.1015	1	1	-0.00605849999999998
2.949	-0.038	-0.1045	1	1	-0.0112085
2.999	-0.043	-0.1085	1	1	-0.0165334999999999
3.049	-0.048	-0.1115	1	1	-0.0220335
3.099	-0.053	-0.1155	1	1	-0.0277085
3.15	-0.0585	-0.119	1	1	-0.03368825
3.199	-0.063	-0.1235	1	1	-0.0396295
3.249	-0.068	-0.127	1	1	-0.0458919999999999
3.298	-0.073	-0.131	1	1	-0.052213
3.349	-0.078	-0.135	1	1	-0.058996
3.399	-0.0825	-0.139	1	1	-0.065846
3.449	-0.0875	-0.143	1	1	-0.072896
3.498	-0.0925	-0.142	1	1	-0.0798785
3.549	-0.0955	-0.1165	1	1	-0.08647025
3.599	-0.098	-0.0945	1	1	-0.09174525
3.649	-0.0995	-0.0735	1	1	-0.09594525
3.699	-0.1005	-0.055	1	1	-0.09915775
3.749	-0.101	-0.038	1	1	-0.10148275
3.799	-0.101	-0.022	1	1	-0.10298275
3.849	-0.1	-0.0075	1	1	-0.10372025
3.899	-0.0985	0.0035	1	1	-0.10382025
3.95	-0.096	0.013	1	1	-0.1033995
3.999	-0.0925	0.0185	1	1	-0.10262775
4.049	-0.0885	0.0235	1	1	-0.10157775
4.099	-0.0835	0.028	1	1	-0.10029025
4.149	-0.079	0.032	1	1	-0.09879025
4.199	-0.074	0.0355	1	1	-0.09710275
4.249	-0.069	0.0395	1	1	-0.09522775
4.299	-0.064	0.043	1	1	-0.09316525
4.349	-0.059	0.046	1	1	-0.0909402499999999
4.399	-0.054	0.0495	1	1	-0.08855275
4.449	-0.0485	0.053	1	1	-0.08599025
4.499	-0.0435	0.0555	1	1	-0.08327775
4.55	-0.038	0.0585	1	1	-0.08037075
4.599	-0.033	0.0615	1	1	-0.0774307499999999
4.649	-0.0275	0.0645	1	1	-0.07428075
4.699	-0.0225	0.0665	1	1	-0.07100575
4.749	-0.017	0.0695	1	1	-0.06760575
4.799	-0.012	0.0725	1	1	-0.06405575
4.848	-0.0065	0.0755	1	1	-0.06042975
4.898	-0.0015	0.0785	1	1	-0.05657975
4.949	0.0035	0.081	1	1	-0.0525125
4.999	0.009	0.084	1	1	-0.0483875
5.049	0.0145	0.087	1	1	-0.0441125
5.099	0.0195	0.089	1	1	-0.0397124999999999
5.15	0.025	0.0925	1	1	-0.03508425
5.199	0.03	0.0945	1	1	-0.03050275
5.249	0.0355	0.0975	1	1	-0.02570275
5.3	0.041	0.1	1	1	-0.0206665
5.349	0.0465	0.103	1	1	-0.0156929999999999
5.399	0.0515	0.105	1	1	-0.0104929999999999
5.45	0.057	0.1085	1	1	-0.00504874999999993
5.499	0.0625	0.1105	1	1	0.000316750000000014
5.549	0.068	0.1135	1	1	0.00591674999999999
5.599	0.0735	0.1155	1	1	0.0116417500000001
5.649	0.079	0.1185	1	1	0.0174917500000001
5.7	0.0845	0.1205	1	1	0.0235862500000001
5.75	0.09	0.1235	1	1	0.02968625
5.799	0.095	0.1255	1	1	0.03578675
5.849	0.1	0.1195	1	1	0.0419117500000001
5.899	0.1035	0.096	1	1	0.0472992500000001
5.949	0.1055	0.0755	1	1	0.05158675
5.999	0.1065	0.0555	1	1	0.05486175
6.049	0.1065	0.0395	1	1	0.05723675
6.099	0.1065	0.024	1	1	0.05882425
6.15	0.1055	0.01	1	1	0.05969125
6.199	0.1035	-0.0015	1	1	0.0598995
6.249	0.101	-0.01	1	1	0.059612
6.3	0.0975	-0.017	1	1	0.0589235
6.349	0.0935	-0.022	1	1	0.057968
6.399	0.089	-0.027	1	1	0.056743
6.449	0.084	-0.0305	1	1	0.0553055
6.5	0.0795	-0.0345	1	1	0.053648
6.549	0.0745	-0.0375	1	1	0.051884
6.599	0.0695	-0.041	1	1	0.0499215
6.649	0.064	-0.0435	1	1	0.047809
6.699	0.0585	-0.047	1	1	0.0455465
6.749	0.0535	-0.0495	1	1	0.043134
6.8	0.048	-0.053	1	1	0.04052025
6.849	0.043	-0.055	1	1	0.03787425
6.899	0.037	-0.0585	1	1	0.03503675
6.949	0.032	-0.0605	1	1	0.03206175
6.999	0.0265	-0.0635	1	1	0.02896175
7.049	0.0215	-0.065	1	1	0.0257492500000001
7.098	0.016	-0.068	1	1	0.02249075
7.149	0.0105	-0.0705	1	1	0.018959
7.199	0.0055	-0.0735	1	1	0.015359
7.249	0	-0.076	1	1	0.0116215
7.299	-0.005	-0.079	1	1	0.00774650000000006
7.349	-0.01	-0.081	1	1	0.0037465
7.398	-0.0155	-0.084	1	1	-0.000295999999999959
7.448	-0.0205	-0.0865	1	1	-0.00455849999999994
7.499	-0.026	-0.0895	1	1	-0.00904649999999996
7.549	-0.0315	-0.092	1	1	-0.0135839999999999
7.599	-0.037	-0.095	1	1	-0.018259
7.648	-0.042	-0.0975	1	1	-0.02297525
7.699	-0.047	-0.1005	1	1	-0.02802425
7.749	-0.0525	-0.1035	1	1	-0.03312425
7.799	-0.058	-0.107	1	1	-0.0383867499999999
7.849	-0.063	-0.11	1	1	-0.04381175
7.899	-0.068	-0.1135	1	1	-0.04939925
7.949	-0.0735	-0.117	1	1	-0.05516175
8	-0.0785	-0.12	1	1	-0.0612052499999999
8.049	-0.0835	-0.1235	1	1	-0.0671710000000001
8.099	-0.0885	-0.127	1	1	-0.0734335
8.149	-0.0935	-0.131	1	1	-0.0798835000000001
8.199	-0.098	-0.1225	1	1	-0.0862210000000002
8.249	-0.101	-0.0985	1	1	-0.0917460000000001
8.299	-0.103	-0.0775	1	1	-0.0961460000000001
8.348	-0.1045	-0.0585	1	1	-0.0994780000000001
8.398	-0.105	-0.0405	1	1	-0.101953
8.449	-0.105	-0.024	1	1	-0.10359775
8.498	-0.104	-0.01	1	1	-0.10443075
8.549	-0.103	0.002	1	1	-0.10463475
8.599	-0.1005	0.011	1	1	-0.10430975
8.649	-0.097	0.0175	1	1	-0.10359725
8.7	-0.093	0.023	1	1	-0.1025645
8.749	-0.0885	0.027	1	1	-0.1013395
8.798	-0.0835	0.031	1	1	-0.0999185000000001
8.848	-0.079	0.0345	1	1	-0.0982810000000001
8.899	-0.0735	0.0385	1	1	-0.0964195000000001
8.948	-0.0685	0.0425	1	1	-0.0944350000000001
9	-0.0635	0.0455	1	1	-0.0921470000000001
9.049	-0.0585	0.0485	1	1	-0.0898440000000001
9.1	-0.053	0.052	1	1	-0.0872812500000001
9.149	-0.048	0.055	1	1	-0.0846597500000001
9.199	-0.043	0.0575	1	1	-0.0818472500000001
9.249	-0.0375	0.061	1	1	-0.0788847500000001
9.298	-0.032	0.0635	1	1	-0.0758345000000002
9.348	-0.027	0.066	1	1	-0.0725970000000001
9.399	-0.0215	0.069	1	1	-0.0691545000000001
9.45	-0.016	0.072	1	1	-0.0655590000000001
9.499	-0.011	0.0745	1	1	-0.0619697500000001
9.548	-0.006	0.077	1	1	-0.0582580000000002
9.599	-0.0005	0.08	1	1	-0.0542545000000001
9.649	0.0045	0.083	1	1	-0.0501795000000001
9.699	0.01	0.086	1	1	-0.0459545
9.749	0.015	0.0885	1	1	-0.0415920000000001
9.799	0.0205	0.091	1	1	-0.0371045000000001
9.85	0.026	0.094	1	1	-0.032387
9.899	0.0315	0.0965	1	1	-0.0277197500000001
9.949	0.0365	0.099	1	1	-0.02283225
10	0.042	0.1015	1	1	-0.0177195000000002
10.049	0.0475	0.1045	1	1	-0.0126725000000001
10.1	0.053	0.1065	1	1	-0.00729200000000004
10.149	0.0585	0.1095	1	1	-0.00200000000000009
10.199	0.064	0.1115	1	1	0.00352499999999998
10.249	0.0695	0.1145	1	1	0.00917499999999986
10.298	0.075	0.1165	1	1	0.0148344999999998
10.348	0.0805	0.118	1	1	0.0206969999999999
10.399	0.086	0.1205	1	1	0.0267787499999999
10.449	0.092	0.1225	1	1	0.03285375
10.499	0.0975	0.1245	1	1	0.0390287499999999
10.549	0.1025	0.112	1	1	0.0449412499999999
10.6	0.1055	0.087	1	1	0.05001575
10.649	0.107	0.068	1	1	0.0538132499999999
10.699	0.108	0.0485	1	1	0.05672575
10.749	0.1085	0.0325	1	1	0.0587507499999999
10.8	0.108	0.017	1	1	0.0600129999999999
10.849	0.1065	0.0045	1	1	0.0605397499999999
10.899	0.1045	-0.006	1	1	0.0605022499999999
10.95	0.1015	-0.013	1	1	0.0600177499999999
10.999	0.098	-0.02	1	1	0.0592092499999999
11.049	0.0935	-0.0245	1	1	0.0580967499999999
11.1	0.0885	-0.029	1	1	0.0567324999999999
11.149	0.084	-0.0325	1	1	0.0552257499999999
11.199	0.079	-0.036	1	1	0.0535132499999999
11.249	0.0735	-0.039	1	1	0.0516382499999999
11.3	0.0685	-0.0425	1	1	0.0495599999999999
11.349	0.0635	-0.0455	1	1	0.047404
11.4	0.058	-0.0485	1	1	0.0450069999999999
11.449	0.0525	-0.0515	1	1	0.0425569999999999
11.499	0.0475	-0.054	1	1	0.0399194999999999
11.55	0.042	-0.0565	1	1	0.0371017499999999
11.599	0.0365	-0.0595	1	1	0.03425975
11.649	0.031	-0.062	1	1	0.0312222499999999
11.699	0.0255	-0.064	1	1	0.0280722499999999
11.749	0.0205	-0.0665	1	1	0.0248097499999999
11.799	0.015	-0.0695	1	1	0.0214097499999999
11.849	0.0095	-0.072	1	1	0.01787225
11.899	0.004	-0.0745	1	1	0.0142097499999999
11.949	-0.0005	-0.0775	1	1	0.0104097499999999
11.999	-0.006	-0.08	1	1	0.00647224999999994
12.049	-0.0115	-0.0825	1	1	0.00240974999999988
12.099	-0.0165	-0.085	1	1	-0.00177775000000003
12.15	-0.0225	-0.088	1	1	-0.00618925000000004
12.199	-0.0275	-0.0905	1	1	-0.0105625000000002
12.249	-0.033	-0.0935	1	1	-0.0151625000000001
12.3	-0.0385	-0.0965	1	1	-0.0200075000000001
12.35	-0.0435	-0.099	1	1	-0.0248950000000001
12.399	-0.0485	-0.102	1	1	-0.0298195000000001
12.45	-0.054	-0.1055	1	1	-0.0351107500000001
12.5	-0.0595	-0.108	1	1	-0.04044825
12.549	-0.0645	-0.1115	1	1	-0.0458260000000001
12.599	-0.07	-0.1145	1	1	-0.051476
12.649	-0.075	-0.1175	1	1	-0.0572760000000001
12.699	-0.08	-0.121	1	1	-0.0632385000000002
12.749	-0.0855	-0.1245	1	1	-0.069376
12.798	-0.0905	-0.1275	1	1	-0.07555
12.849	-0.0955	-0.1315	1	1	-0.0821545
12.899	-0.1	-0.1155	1	1	-0.0883295000000001
12.949	-0.103	-0.092	1	1	-0.0935170000000002
12.999	-0.105	-0.0715	1	1	-0.0976045000000001
13.049	-0.106	-0.0525	1	1	-0.1007045
13.099	-0.106	-0.035	1	1	-0.102892
13.149	-0.106	-0.019	1	1	-0.104242
13.199	-0.105	-0.005	1	1	-0.104842
13.249	-0.1035	0.0055	1	1	-0.1048295
13.299	-0.1005	0.0135	1	1	-0.1043545
13.349	-0.0965	0.0195	1	1	-0.1035295
13.399	-0.0925	0.0245	1	1	-0.1024295
13.449	-0.088	0.029	1	1	-0.101092
13.5	-0.083	0.033	1	1	-0.0995110000000001
13.549	-0.0785	0.0365	1	1	-0.0978082500000001
13.6	-0.073	0.04	1	1	-0.0958575000000001
13.649	-0.068	0.0435	1	1	-0.0938117500000001
13.699	-0.063	0.0465	1	1	-0.0915617500000001
13.749	-0.0575	0.05	1	1	-0.0891492500000001
13.8	-0.052	0.053	1	1	-0.0865227500000001
13.85	-0.047	0.056	1	1	-0.0837977500000001
13.899	-0.042	0.059	1	1	-0.0809802500000001
13.948	-0.0365	0.0615	1	1	-0.0780280000000001
13.999	-0.031	0.065	1	1	-0.0748022500000001
14.049	-0.026	0.0675	1	1	-0.0714897500000001
14.1	-0.0205	0.07	1	1	-0.0679835000000001
14.149	-0.0155	0.073	1	1	-0.0644800000000001
14.2	-0.01	0.076	1	1	-0.0606805000000001
14.249	-0.0045	0.0785	1	1	-0.0568952500000001
14.299	0	0.0815	1	1	-0.0528952500000001
14.349	0.0055	0.0845	1	1	-0.0487452500000002
14.399	0.011	0.087	1	1	-0.0444577500000001
14.449	0.016	0.0895	1	1	-0.04004525
14.499	0.0215	0.0925	1	1	-0.0354952500000001
14.549	0.027	0.0955	1	1	-0.0307952500000001
14.599	0.0325	0.0975	1	1	-0.0259702500000002
14.649	0.038	0.1005	1	1	-0.0210202500000001
14.698	0.0435	0.103	1	1	-0.0160345000000001
14.749	0.049	0.105	1	1	-0.0107305000000001
14.799	0.0545	0.108	1	1	-0.00540550000000005
14.85	0.06	0.1105	1	1	0.00016624999999997
14.899	0.0655	0.1125	1	1	0.00562974999999991
14.948	0.071	0.1145	1	1	0.0111912499999999
14.999	0.0765	0.1165	1	1	0.0170817499999999
15.049	0.082	0.1185	1	1	0.02295675
15.1	0.088	0.121	1	1	0.029064
15.149	0.094	0.123	1	1	0.0350419999999999
15.199	0.0995	0.1245	1	1	0.0412295
15.249	0.104	0.105	1	1	0.0469669999999999
15.299	0.107	0.082	1	1	0.0516419999999999
15.349	0.1085	0.062	1	1	0.0552419999999999
15.398	0.1095	0.044	1	1	0.0578389999999999
15.449	0.1095	0.0275	1	1	0.0596622499999999
15.499	0.1085	0.0125	1	1	0.0606622499999999
15.548	0.107	0	1	1	0.0609684999999999
15.599	0.105	-0.009	1	1	0.0607389999999999
15.649	0.1015	-0.016	1	1	0.0601139999999999
15.699	0.0975	-0.0215	1	1	0.0591764999999999
15.749	0.093	-0.026	1	1	0.0579889999999999
15.799	0.088	-0.0295	1	1	0.0566014999999999
15.849	0.083	-0.034	1	1	0.0550139999999999
15.899	0.078	-0.037	1	1	0.0532389999999999
15.949	0.073	-0.0405	1	1	0.0513014999999999
15.999	0.0675	-0.0435	1	1	0.0492014999999998
16.05	0.062	-0.0465	1	1	0.0469064999999999
16.099	0.057	-0.0495	1	1	0.0445544999999999
16.15	0.0515	-0.052	1	1	0.0419662499999998
16.199	0.0465	-0.055	1	1	0.0393447499999999
16.248	0.041	-0.058	1	1	0.0365762499999999
16.299	0.0355	-0.06	1	1	0.03356725
16.349	0.03	-0.063	1	1	0.03049225
16.4	0.0245	-0.065	1	1	0.0272282499999998
16.45	0.019	-0.0675	1	1	0.02391575
16.499	0.014	-0.0705	1	1	0.0205347499999998
16.55	0.0085	-0.073	1	1	0.0168754999999999
16.599	0.003	-0.0755	1	1	0.01323725
16.65	-0.002	-0.078	1	1	0.00932299999999981
16.699	-0.0075	-0.081	1	1	0.00542749999999985
16.748	-0.0125	-0.0835	1	1	0.00139724999999989
16.798	-0.018	-0.086	1	1	-0.00284025000000017
16.849	-0.0235	-0.089	1	1	-0.00730275000000003
16.899	-0.029	-0.0915	1	1	-0.0118152500000001
16.949	-0.0345	-0.0945	1	1	-0.0164652500000002
16.999	-0.0395	-0.097	1	1	-0.0212527500000002
17.049	-0.045	-0.1	1	1	-0.0261777499999999
17.099	-0.05	-0.103	1	1	-0.03125275
17.149	-0.0555	-0.106	1	1	-0.0364777500000001
17.199	-0.0605	-0.109	1	1	-0.0418527500000002
17.249	-0.066	-0.112	1	1	-0.0473777500000002
17.298	-0.071	-0.115	1	1	-0.0529392500000002
17.348	-0.0765	-0.119	1	1	-0.0587892500000003
17.399	-0.0815	-0.122	1	1	-0.0649347500000001
17.449	-0.0865	-0.1255	1	1	-0.0711222500000002
17.499	-0.092	-0.128	1	1	-0.0774597500000003
17.549	-0.097	-0.1315	1	1	-0.0839472499999999
17.599	-0.101	-0.1085	1	1	-0.08994725
17.649	-0.104	-0.086	1	1	-0.0948097500000001
17.699	-0.1055	-0.0655	1	1	-0.0985972500000001
17.749	-0.1065	-0.048	1	1	-0.10143475
17.799	-0.1065	-0.03	1	1	-0.10338475
17.849	-0.1065	-0.015	1	1	-0.10450975
17.899	-0.105	-0.0015	1	1	-0.10492225
17.949	-0.103	0.0075	1	1	-0.10477225
17.998	-0.1	0.0155	1	1	-0.10420875
18.049	-0.096	0.0205	1	1	-0.10329075
18.1	-0.0915	0.026	1	1	-0.102105
18.149	-0.087	0.0295	1	1	-0.10074525
18.199	-0.082	0.034	1	1	-0.09915775
18.249	-0.077	0.037	1	1	-0.09738275
18.299	-0.072	0.041	1	1	-0.0954327500000001
18.349	-0.067	0.044	1	1	-0.0933077500000001
18.399	-0.0615	0.0475	1	1	-0.0910202500000001
18.45	-0.0565	0.051	1	1	-0.0885085000000002
18.499	-0.0515	0.054	1	1	-0.085936
18.549	-0.046	0.0565	1	1	-0.0831735000000002
18.599	-0.0405	0.06	1	1	-0.0802610000000001
18.649	-0.0355	0.0625	1	1	-0.0771985000000001
18.699	-0.03	0.066	1	1	-0.073986
18.749	-0.025	0.068	1	1	-0.070636
18.8	-0.0195	0.071	1	1	-0.0670915000000001
18.849	-0.014	0.0735	1	1	-0.0635512500000001
18.898	-0.009	0.077	1	1	-0.0598640000000002
18.949	-0.0035	0.0795	1	1	-0.05587325
18.999	0.0015	0.0825	1	1	-0.05182325
19.048	0.0065	0.0845	1	1	-0.04773175
19.099	0.012	0.0875	1	1	-0.0433457500000001
19.15	0.0175	0.09	1	1	-0.0388195
19.199	0.023	0.0935	1	1	-0.03432375
19.249	0.0285	0.0955	1	1	-0.0295987499999999
19.3	0.0335	0.0985	1	1	-0.0246517500000001
19.349	0.039	0.101	1	1	-0.0197640000000002
19.4	0.045	0.1035	1	1	-0.01454925
19.45	0.05	0.1055	1	1	-0.00932425000000026
19.499	0.0555	0.1085	1	1	-0.00408124999999993
19.549	0.061	0.1105	1	1	0.00139374999999976
19.6	0.067	0.113	1	1	0.00709299999999997
19.649	0.0725	0.115	1	1	0.0126789999999999
19.699	0.078	0.117	1	1	0.018479
19.749	0.0835	0.1185	1	1	0.0243665000000001
19.799	0.0895	0.121	1	1	0.0303539999999997
19.849	0.095	0.122	1	1	0.0364289999999998
19.899	0.101	0.1245	1	1	0.0425914999999999
19.949	0.105	0.098	1	1	0.048154
