DEF="Time" t / s	"Current" I_A1 / A	"Voltage" U_B1 / V	"Relay" R_1	"Voltage source" S_1	"Magnetic flux" &F / Vs
0	0.002	0	0	1	0
0.0569999999999999	0.0125	0.0765	1	1	0.00218025
0.107	0.0295	0.1195	1	1	0.00708024999999998
0.157	0.0475	0.1615	1	1	0.01410525
0.208	0.067	0.2025	1	1	0.02338725
0.257	0.0855	0.246	1	1	0.0343755
0.307	0.103	0.316	1	1	0.0484255
0.357	0.1135	0.365	1	1	0.0654504999999999
0.407	0.126	0.423	1	1	0.0851505
0.458	0.1395	0.4795	1	1	0.10816425
0.507	0.153	0.53	1	1	0.132897
0.557	0.169	0.579	1	1	0.160622
0.607	0.186	0.625	1	1	0.190722
0.658	0.2045	0.665	1	1	0.223617
0.707	0.2245	0.701	1	1	0.257084
0.757	0.2465	0.7325	1	1	0.2929215
0.808	0.2705	0.76	1	1	0.33098025
0.858	0.296	0.7795	1	1	0.36946775
0.908	0.3225	0.798	1	1	0.40890525
0.958	0.3515	0.8095	1	1	0.44909275
1.008	0.382	0.82	1	1	0.48983025
1.057	0.413	0.827	1	1	0.53018175
1.107	0.4455	0.8305	1	1	0.57161925
1.157	0.4795	0.8205	1	1	0.61289425
1.206	0.504	0.6805	1	1	0.64966875
1.257	0.5215	0.5505	1	1	0.68105925
1.307	0.533	0.4315	1	1	0.70560925
1.358	0.539	0.328	1	1	0.7249765
1.407	0.5405	0.2375	1	1	0.73883125
1.458	0.5385	0.155	1	1	0.74884
1.507	0.5325	0.086	1	1	0.7547445
1.558	0.5235	0.0205	1	1	0.75746025
1.608	0.5095	-0.0265	1	1	0.75731025
1.657	0.4915	-0.0625	1	1	0.75512975
1.707	0.4695	-0.0945	1	1	0.75120475
1.757	0.446	-0.1225	1	1	0.74577975
1.807	0.4215	-0.146	1	1	0.73906725
1.857	0.3965	-0.1715	1	1	0.73112975
1.908	0.3705	-0.1955	1	1	0.72177125
1.958	0.3455	-0.2205	1	1	0.71137125
2.007	0.3205	-0.2445	1	1	0.69997875
2.058	0.2955	-0.273	1	1	0.6867825
2.108	0.2715	-0.298	1	1	0.6725075
2.158	0.247	-0.3275	1	1	0.65687
2.207	0.224	-0.355	1	1	0.64014875
2.257	0.2	-0.3855	1	1	0.62163625
2.307	0.177	-0.4155	1	1	0.60161125
2.357	0.155	-0.444	1	1	0.58012375
2.407	0.132	-0.4775	1	1	0.55708625
2.458	0.11	-0.5135	1	1	0.53181575
2.508	0.089	-0.549	1	1	0.50525325
2.558	0.069	-0.5885	1	1	0.47681575
2.607	0.0495	-0.629	1	1	0.446987
2.658	0.031	-0.673	1	1	0.413786
2.707	0.012	-0.7135	1	1	0.37981675
2.758	-0.006	-0.7555	1	1	0.34235725
2.807	-0.025	-0.7955	1	1	0.30435775
2.858	-0.0445	-0.836	1	1	0.2627545
2.907	-0.0635	-0.874	1	1	0.2208595
2.957	-0.084	-0.9105	1	1	0.176247
3.007	-0.1055	-0.9425	1	1	0.129922
3.057	-0.1275	-0.9725	1	1	0.0820469999999998
3.107	-0.151	-0.999	1	1	0.0327595
3.157	-0.176	-1.021	1	1	-0.0177404999999998
3.207	-0.2025	-1.0235	1	1	-0.0688530000000005
3.257	-0.2305	-1.0235	1	1	-0.120028
3.307	-0.259	-1.0235	1	1	-0.171203
3.357	-0.29	-1.0235	1	1	-0.222378
3.408	-0.323	-1.0235	1	1	-0.2745765
3.457	-0.356	-1.0235	1	1	-0.324728000000001
3.507	-0.3905	-1.0235	1	1	-0.375903
3.557	-0.417	-0.9005	1	1	-0.424003
3.608	-0.438	-0.7585	1	1	-0.4663075
3.657	-0.453	-0.633	1	1	-0.50039925
3.707	-0.4635	-0.517	1	1	-0.52914925
3.757	-0.4705	-0.4125	1	1	-0.55238675
3.807	-0.4735	-0.3155	1	1	-0.57058675
3.858	-0.473	-0.2295	1	1	-0.58448425
3.908	-0.4695	-0.1495	1	1	-0.59395925
3.957	-0.463	-0.083	1	1	-0.5996555
4.007	-0.453	-0.0185	1	1	-0.602193
4.057	-0.4395	0.03	1	1	-0.6019055
4.108	-0.4215	0.068	1	1	-0.5994065
4.157	-0.401	0.1015	1	1	-0.59525375
4.208	-0.3785	0.132	1	1	-0.5892995
4.257	-0.355	0.159	1	1	-0.58217
4.308	-0.3315	0.187	1	1	-0.573347
4.357	-0.307	0.213	1	1	-0.563547
4.408	-0.283	0.2415	1	1	-0.55195725
4.457	-0.259	0.269	1	1	-0.53945
4.508	-0.2355	0.2985	1	1	-0.52497875
4.557	-0.212	0.328	1	1	-0.5096295
4.607	-0.189	0.3595	1	1	-0.492442
4.658	-0.1665	0.3905	1	1	-0.473317
4.707	-0.145	0.421	1	1	-0.45343525
4.757	-0.1225	0.4555	1	1	-0.43152275
4.807	-0.1015	0.4915	1	1	-0.407847750000001
4.858	-0.0805	0.5285	1	1	-0.381837750000001
4.907	-0.061	0.57	1	1	-0.3549245
4.957	-0.0425	0.6115	1	1	-0.325387000000001
5.007	-0.024	0.658	1	1	-0.2936495
5.058	-0.006	0.7	1	1	-0.2590205
5.108	0.0115	0.7435	1	1	-0.222933000000001
5.157	0.0305	0.786	1	1	-0.18546025
5.207	0.049	0.827	1	1	-0.145135250000001
5.258	0.069	0.866	1	1	-0.101963750000001
5.307	0.089	0.902	1	1	-0.058647750000001
5.358	0.111	0.9355	1	1	-0.0117915000000008
5.407	0.1335	0.965	1	1	0.0347707500000004
5.458	0.1575	0.9905	1	1	0.0846360000000005
5.507	0.182	1.012	1	1	0.13369725
5.558	0.2095	1.0235	1	1	0.1856025
5.607	0.2375	1.0235	1	1	0.235754
5.657	0.267	1.0235	1	1	0.286929
5.707	0.298	1.0235	1	1	0.338103999999999
5.758	0.3305	1.0235	1	1	0.390302499999999
5.807	0.3645	1.0235	1	1	0.440453999999999
5.857	0.4005	1.013	1	1	0.4913665
5.908	0.4275	0.859	1	1	0.5391025
5.957	0.447	0.723	1	1	0.577861499999999
6.008	0.462	0.596	1	1	0.611495999999999
6.057	0.472	0.483	1	1	0.637931499999999
6.107	0.4785	0.3795	1	1	0.659493999999999
6.156	0.481	0.283	1	1	0.675725249999999
6.207	0.48	0.1995	1	1	0.688028999999999
6.257	0.476	0.1205	1	1	0.696028999999999
6.307	0.468	0.0525	1	1	0.700353999999999
6.357	0.4575	-0.006	1	1	0.701516499999999
6.408	0.441	-0.0485	1	1	0.700126749999999
6.457	0.422	-0.085	1	1	0.696855999999999
6.508	0.4005	-0.115	1	1	0.691755999999999
6.557	0.378	-0.144	1	1	0.6854105
6.607	0.353	-0.171	1	1	0.6775355
6.658	0.328	-0.198	1	1	0.668125999999999
6.707	0.304	-0.2235	1	1	0.65779925
6.757	0.2805	-0.2515	1	1	0.645924249999999
6.807	0.256	-0.278	1	1	0.63268675
6.857	0.232	-0.3085	1	1	0.618024249999999
6.907	0.209	-0.3365	1	1	0.601899249999999
6.957	0.1855	-0.3685	1	1	0.584274249999999
7.007	0.1625	-0.4	1	1	0.565061749999999
7.058	0.14	-0.431	1	1	0.543871249999999
7.108	0.1185	-0.463	1	1	0.521521249999999
7.158	0.0975	-0.4995	1	1	0.497458749999999
7.207	0.077	-0.536	1	1	0.472088999999999
7.257	0.057	-0.577	1	1	0.444263999999999
7.307	0.038	-0.6205	1	1	0.4143265
7.356	0.02	-0.6635	1	1	0.382868499999999
7.407	0.0015	-0.7055	1	1	0.347958999999999
7.457	-0.016	-0.7485	1	1	0.311609
7.508	-0.0355	-0.7915	1	1	0.272338999999999
7.557	-0.054	-0.831	1	1	0.23258775
7.608	-0.0735	-0.869	1	1	0.18923775
7.657	-0.0935	-0.9045	1	1	0.145786999999999
7.707	-0.1145	-0.9375	1	1	0.0997369999999996
7.757	-0.1375	-0.9685	1	1	0.0520869999999989
7.807	-0.1615	-0.993	1	1	0.00304949999999996
7.857	-0.187	-1.016	1	1	-0.0471755000000008
7.907	-0.2135	-1.0235	1	1	-0.0981630000000015
7.957	-0.241	-1.0235	1	1	-0.149338
8.007	-0.2705	-1.0235	1	1	-0.200513000000001
8.057	-0.3015	-1.0235	1	1	-0.251688
8.107	-0.3335	-1.0235	1	1	-0.302863000000001
8.157	-0.368	-1.0235	1	1	-0.354038000000002
8.207	-0.4035	-0.996	1	1	-0.4045255
8.257	-0.4285	-0.8495	1	1	-0.450663000000001
8.307	-0.448	-0.709	1	1	-0.4896255
8.357	-0.463	-0.585	1	1	-0.521975500000001
8.407	-0.473	-0.471	1	1	-0.548375500000001
8.458	-0.479	-0.366	1	1	-0.569719000000001
8.507	-0.481	-0.274	1	1	-0.585399000000001
8.558	-0.48	-0.1905	1	1	-0.597243750000001
8.607	-0.4755	-0.1145	1	1	-0.604716250000001
8.658	-0.4675	-0.048	1	1	-0.608860000000001
8.707	-0.457	0.009	1	1	-0.609815500000001
8.756	-0.4405	0.049	1	1	-0.608394500000001
8.807	-0.421	0.0865	1	1	-0.604939250000001
8.858	-0.399	0.117	1	1	-0.599750000000001
8.907	-0.3765	0.1445	1	1	-0.593343250000001
8.957	-0.352	0.1715	1	1	-0.585443250000001
9.007	-0.3275	0.198	1	1	-0.576205750000001
9.058	-0.303	0.2235	1	1	-0.565457500000001
9.107	-0.2795	0.252	1	1	-0.553807750000001
9.157	-0.255	0.2795	1	1	-0.540520250000001
9.207	-0.2315	0.309	1	1	-0.525807750000001
9.257	-0.208	0.3385	1	1	-0.509620250000001
9.308	-0.185	0.37	1	1	-0.491553500000001
9.357	-0.1625	0.401	1	1	-0.472664000000001
9.407	-0.141	0.432	1	1	-0.451839000000001
9.457	-0.119	0.4655	1	1	-0.429401500000001
9.508	-0.0975	0.5025	1	1	-0.404717500000001
9.557	-0.077	0.5385	1	1	-0.379213000000002
9.607	-0.0575	0.581	1	1	-0.351225500000001
9.657	-0.039	0.6245	1	1	-0.321088000000001
9.707	-0.0205	0.67	1	1	-0.288725500000001
9.757	-0.0025	0.7115	1	1	-0.254188000000001
9.807	0.0155	0.756	1	1	-0.217500500000002
9.857	0.034	0.7975	1	1	-0.178663000000001
9.908	0.0535	0.838	1	1	-0.136957750000001
9.957	0.073	0.875	1	1	-0.0949892500000015
10.007	0.0935	0.912	1	1	-0.0503142500000009
10.057	0.1155	0.942	1	1	-0.00396425000000183
10.107	0.1385	0.973	1	1	0.0439107499999988
10.158	0.1635	0.9975	1	1	0.094158499999999
10.208	0.189	1.0195	1	1	0.1445835
10.257	0.2155	1.0235	1	1	0.194636999999999
10.307	0.244	1.0235	1	1	0.245811999999998
10.356	0.273	1.0235	1	1	0.295963499999999
10.407	0.3045	1.0235	1	1	0.348162
10.457	0.3375	1.0235	1	1	0.399336999999999
10.507	0.3735	1.0235	1	1	0.450511999999999
10.558	0.4075	0.977	1	1	0.501524749999999
10.607	0.4315	0.833	1	1	0.545869749999999
10.657	0.4505	0.6935	1	1	0.584032249999999
10.707	0.4645	0.5715	1	1	0.615657249999999
10.758	0.474	0.4565	1	1	0.641871249999999
10.808	0.4795	0.3545	1	1	0.662146249999999
10.858	0.481	0.261	1	1	0.677533749999999
10.908	0.4795	0.177	1	1	0.688483749999999
10.957	0.4745	0.1055	1	1	0.695404999999999
11.008	0.466	0.0385	1	1	0.699076999999999
11.058	0.454	-0.017	1	1	0.699614499999999
11.107	0.4375	-0.057	1	1	0.697801499999999
11.157	0.4175	-0.0925	1	1	0.694063999999999
11.207	0.3955	-0.122	1	1	0.688701499999999
11.258	0.372	-0.1505	1	1	0.681752749999999
11.307	0.3475	-0.177	1	1	0.673728999999999
11.357	0.323	-0.2035	1	1	0.664216499999999
11.407	0.2985	-0.2295	1	1	0.653391499999999
11.457	0.274	-0.2585	1	1	0.641191499999999
11.507	0.25	-0.2855	1	1	0.627591499999999
11.557	0.2265	-0.3155	1	1	0.612566499999999
11.607	0.2035	-0.3435	1	1	0.596091499999999
11.657	0.18	-0.3755	1	1	0.578116499999998
11.708	0.1575	-0.4045	1	1	0.558226499999998
11.757	0.136	-0.4375	1	1	0.537597499999999
11.807	0.1135	-0.472	1	1	0.514859999999999
11.858	0.092	-0.5095	1	1	0.489831749999999
11.907	0.0715	-0.5455	1	1	0.463984249999998
11.957	0.052	-0.5875	1	1	0.435659249999999
12.007	0.0335	-0.631	1	1	0.405196749999998
12.057	0.0155	-0.6745	1	1	0.372559249999999
12.107	-0.0025	-0.7165	1	1	0.337784249999999
12.158	-0.021	-0.7595	1	1	0.300146249999998
12.208	-0.04	-0.8	1	1	0.261158749999998
12.258	-0.059	-0.8415	1	1	0.220121249999999
12.308	-0.079	-0.8785	1	1	0.177121249999998
12.357	-0.099	-0.9135	1	1	0.133217249999999
12.408	-0.1205	-0.9455	1	1	0.0858127499999985
12.457	-0.1435	-0.975	1	1	0.038760499999999
12.506	-0.167	-0.999	1	1	-0.00960250000000226
12.558	-0.1935	-1.022	1	1	-0.0621485000000019
12.607	-0.22	-1.0235	1	1	-0.112263250000001
12.657	-0.248	-1.0235	1	1	-0.163438250000002
12.707	-0.2775	-1.0235	1	1	-0.214613250000001
12.757	-0.309	-1.0235	1	1	-0.265788250000002
12.808	-0.3425	-1.0235	1	1	-0.317986750000002
12.857	-0.3765	-1.0235	1	1	-0.368138250000001
12.907	-0.4105	-0.9595	1	1	-0.417713250000002
12.957	-0.4345	-0.813	1	1	-0.462025750000003
13.008	-0.4525	-0.6785	1	1	-0.500059000000001
13.057	-0.466	-0.559	1	1	-0.530377750000001
13.107	-0.4755	-0.4465	1	1	-0.555515250000002
13.157	-0.4805	-0.3445	1	1	-0.575290250000002
13.207	-0.482	-0.252	1	1	-0.590202750000002
13.257	-0.48	-0.1705	1	1	-0.600765250000001
13.307	-0.475	-0.096	1	1	-0.607427750000002
13.357	-0.4665	-0.0315	1	1	-0.610615250000002
13.407	-0.4545	0.021	1	1	-0.610877750000002
13.457	-0.437	0.06	1	1	-0.608852750000002
13.507	-0.4165	0.095	1	1	-0.604977750000002
13.557	-0.394	0.125	1	1	-0.599477750000002
13.607	-0.371	0.1525	1	1	-0.592540250000002
13.658	-0.3465	0.1785	1	1	-0.584099750000002
13.707	-0.3225	0.205	1	1	-0.574704000000001
13.758	-0.298	0.231	1	1	-0.563586000000002
13.807	-0.2735	0.259	1	1	-0.551581000000002
13.857	-0.25	0.286	1	1	-0.537956000000002
13.907	-0.226	0.3165	1	1	-0.522893500000001
13.957	-0.203	0.346	1	1	-0.506331000000001
14.008	-0.1795	0.3785	1	1	-0.487856250000002
14.057	-0.1575	0.4065	1	1	-0.468623750000002
14.107	-0.1355	0.441	1	1	-0.447436250000002
14.157	-0.1135	0.474	1	1	-0.424561250000001
14.207	-0.093	0.5105	1	1	-0.399948750000001
14.257	-0.0725	0.5495	1	1	-0.373448750000002
14.307	-0.053	0.592	1	1	-0.344911250000002
14.357	-0.0345	0.636	1	1	-0.314211250000002
14.407	-0.016	0.68	1	1	-0.281311250000001
14.457	0.001	0.7215	1	1	-0.246273750000001
14.508	0.02	0.766	1	1	-0.208342500000002
14.557	0.0385	0.807	1	1	-0.169804000000002
14.607	0.058	0.847	1	1	-0.128454000000002
14.657	0.078	0.884	1	1	-0.0851790000000011
14.707	0.0985	0.92	1	1	-0.0400790000000004
14.758	0.1205	0.949	1	1	0.00758049999999804
14.807	0.1435	0.979	1	1	0.0548164999999975
14.858	0.169	1.0025	1	1	0.105344749999999
14.907	0.195	1.024	1	1	0.154993999999999
14.957	0.222	1.0235	1	1	0.2061815
15.007	0.251	1.0235	1	1	0.257356499999997
15.057	0.28	1.0235	1	1	0.308531499999998
15.107	0.3125	1.0235	1	1	0.359706499999998
15.158	0.3465	1.0235	1	1	0.411904999999997
15.207	0.381	1.0235	1	1	0.4620565
15.257	0.4135	0.945	1	1	0.511268999999997
15.307	0.437	0.7975	1	1	0.554831499999998
15.357	0.4545	0.663	1	1	0.591343999999998
15.408	0.4675	0.5385	1	1	0.621982249999997
15.457	0.476	0.433	1	1	0.645783999999999
15.507	0.4805	0.334	1	1	0.664958999999998
15.558	0.4815	0.2405	1	1	0.679608749999998
15.608	0.479	0.1605	1	1	0.689633749999998
15.658	0.473	0.087	1	1	0.695821249999998
15.707	0.4645	0.0245	1	1	0.698552999999998
15.757	0.451	-0.0275	1	1	0.698477999999998
15.808	0.433	-0.066	1	1	0.696093749999998
15.857	0.413	-0.0995	1	1	0.692038999999998
15.908	0.39	-0.129	1	1	0.686212249999998
15.957	0.3665	-0.1585	1	1	0.679168499999998
16.007	0.342	-0.183	1	1	0.670630999999998
16.058	0.317	-0.211	1	1	0.660583999999998
16.108	0.2925	-0.238	1	1	0.649358999999998
16.157	0.2685	-0.265	1	1	0.637035499999998
16.206	0.245	-0.2915	1	1	0.623401249999998
16.258	0.221	-0.3225	1	1	0.607437249999998
16.307	0.198	-0.3505	1	1	0.590948749999998
16.357	0.175	-0.383	1	1	0.572611249999998
16.407	0.1525	-0.412	1	1	0.552736249999998
16.456	0.1305	-0.445	1	1	0.531739749999998
16.507	0.109	-0.479	1	1	0.508177749999999
16.557	0.0875	-0.5175	1	1	0.483265249999999
16.608	0.067	-0.5555	1	1	0.455903749999998
16.658	0.048	-0.5975	1	1	0.427078749999999
16.708	0.029	-0.641	1	1	0.396116249999999
16.758	0.011	-0.6845	1	1	0.362978749999998
16.807	-0.007	-0.7265	1	1	0.328409249999999
16.857	-0.025	-0.768	1	1	0.291046749999998
16.907	-0.0435	-0.8085	1	1	0.251634249999997
16.957	-0.063	-0.8495	1	1	0.210184249999997
17.007	-0.0825	-0.886	1	1	0.166796749999999
17.057	-0.1035	-0.9215	1	1	0.121609249999999
17.107	-0.1255	-0.9525	1	1	0.074759249999998
17.157	-0.149	-0.981	1	1	0.0264217499999973
17.208	-0.174	-1.0045	1	1	-0.0242085000000011
17.257	-0.199	-1.0235	1	1	-0.0738945000000005
17.307	-0.2255	-1.0235	1	1	-0.125069500000001
17.357	-0.255	-1.0235	1	1	-0.176244500000002
17.407	-0.285	-1.0235	1	1	-0.227419500000003
17.457	-0.3165	-1.0235	1	1	-0.278594500000004
17.507	-0.3495	-1.0235	1	1	-0.329769500000001
17.557	-0.386	-1.0235	1	1	-0.380944500000001
17.607	-0.4165	-0.924	1	1	-0.429632000000002
17.657	-0.439	-0.7805	1	1	-0.472244500000003
17.707	-0.4565	-0.648	1	1	-0.507957000000003
